altitude,pressure,temperature,dew_point,wind_dir,wind_speed
0,1013.25,25.0,13.0,270,5
500,953.1,22.0,12.0,270,8
1000,898.6,18.0,9.0,280,12
1500,846.1,14.0,6.0,290,15
2000,795.0,10.0,3.0,300,18
2500,747.2,6.0,0.0,310,20
3000,701.1,5.0,-2.0,320,22
3500,657.0,0.0,-8.0,330,25
4000,616.6,-4.0,-13.0,340,28
5000,540.5,-12.0,-22.0,350,30
6000,471.8,-20.0,-31.0,0,35
8000,356.5,-36.0,-48.0,10,40
10000,264.7,-52.0,-65.0,20,45